# 0.03811  hbar^2/(2m)
# -4.0 xmin
# 4.0 xmax
# 1350 ngrid
# 0 nnode 
# 0.1 vscale
# 0.3289869295934311  Energy
#offset=0
#omega=1
#mass=5.68
#offset+(0.5*mass*omega^2*x^2)
-4.0 0.0 0.0
-3.994069681245367 4.179461488773454E-31 45.30536303694744
-3.9881393624907338 8.532905539838283E-31 45.17092583200031
-3.9822090437361006 1.3240578238489559E-30 45.03668838515859
-3.976278724981468 1.8496301448872767E-30 44.902650696422306
-3.970348406226835 2.451534256682917E-30 44.768812765791424
-3.9644180874722017 3.154307058772439E-30 44.635174593265965
-3.9584877687175686 3.986474064876555E-30 44.501736178845924
-3.9525574499629355 4.9816788976744315E-30 44.36849752253131
-3.9466271312083023 6.1800074573630676E-30 44.235458624322106
-3.940696812453669 7.629557484364197E-30 44.10261948421832
-3.9347664936990365 9.388313215564667E-30 43.96998010221997
-3.9288361749444034 1.1526396018214077E-29 43.83754047832703
-3.9229058561897703 1.4128775669118517E-29 43.7053006125395
-3.916975537435137 1.729854381452632E-29 43.5732605048574
-3.911045218680504 2.116087169231151E-29 43.44142015528071
-3.905114899925871 2.586779914573446E-29 43.30977956380944
-3.899184581171238 3.1604032183425057E-29 43.1783387304436
-3.893254262416605 3.859396290229193E-29 43.04709765518318
-3.887323943661972 4.7110169766246745E-29 42.91605633802817
-3.881393624907339 5.74837095627154E-29 42.785214778978585
-3.8754633061527057 7.011657669253428E-29 42.65457297803441
-3.8695329873980726 8.549678301333755E-29 42.52413093519566
-3.8636026686434395 1.042166049270439E-28 42.39388865046233
-3.8576723498888064 1.2699465699114916E-28 42.26384612383441
-3.8517420311341732 1.5470258689746354E-28 42.13400335531192
-3.8458117123795406 1.8839734982755346E-28 42.004360344894856
-3.8398813936249074 2.2936021651070587E-28 41.874917092583196
-3.8339510748702743 2.7914390543076106E-28 41.74567359837696
-3.828020756115641 3.396295135261199E-28 41.61662986227614
-3.822090437361008 4.130952609552258E-28 41.48778588428075
-3.816160118606375 5.022994754983485E-28 41.359141664390776
-3.810229799851742 6.105807346323846E-28 41.230697202606216
-3.804299481097109 7.419786746412094E-28 41.102452498927086
-3.798369162342476 9.013796859221204E-28 40.97440755335336
-3.792438843587843 1.0946925653755065E-27 40.84656236588506
-3.7865085248332098 1.3290602184646971E-27 40.71891693652218
-3.7805782060785766 1.6131147287250428E-27 40.591471265264715
-3.7746478873239435 1.95728458123438E-27 40.46422535211267
-3.7687175685693104 2.3741645866654837E-27 40.33717919706605
-3.7627872498146777 2.8789611611392404E-27 40.210332800124846
-3.7568569310600446 3.4900281423570204E-27 40.083686161289066
-3.7509266123054115 4.229511345754936E-27 39.957239280558696
-3.7449962935507783 5.124123682717578E-27 39.83099215793375
-3.739065974796145 6.206076991908573E-27 39.70494479341422
-3.733135656041512 7.514201912427967E-27 39.57909718700011
-3.727205337286879 9.095293318123725E-27 39.45344933869142
-3.7212750185322463 1.100572623171886E-26 39.32800124848816
-3.715344699777613 1.3313395978569982E-26 39.20275291639031
-3.70941438102298 1.610004690033361E-26 39.07770434239788
-3.703484062268347 1.9464066558793585E-26 38.95285552651086
-3.697553743513714 2.3523837412415602E-26 38.82820646872927
-3.6916234247590807 2.842175590998516E-26 38.70375716905309
-3.6856931060044476 3.432905037229363E-26 38.57950762748234
-3.679762787249815 4.1451554584232135E-26 38.45545784401701
-3.6738324684951817 5.00366244798799E-26 38.3316078186571
-3.6679021497405486 6.038142160336743E-26 38.2079575514026
-3.6619718309859155 7.284283027390215E-26 38.08450704225352
-3.6560415122312824 8.784932688631281E-26 37.961256291209864
-3.6501111934766493 1.0591518109529776E-25 37.838205298271625
-3.644180874722016 1.2765744160826387E-25 37.7153540634388
-3.6382505559673834 1.5381624613685388E-25 37.592702586711404
-3.6323202372127503 1.8527909832495843E-25 37.47025086808942
-3.626389918458117 2.231098772545435E-25 37.34799890757286
-3.620459599703484 2.6858349107007615E-25 37.22594670516172
-3.614529280948851 3.232272596675588E-25 37.104094260855994
-3.608598962194218 3.8887031736633607E-25 36.98244157465569
-3.6026686434395847 4.67702571056604E-25 36.8609886465608
-3.596738324684952 5.623450396319315E-25 36.73973547657134
-3.590808005930319 6.759337450152462E-25 36.61868206468729
-3.584877687175686 8.122197337460775E-25 36.49782841090867
-3.5789473684210527 9.756882927056757E-25 36.37717451523545
-3.5730170496664195 1.1717009970404457E-24 36.25672037766766
-3.5670867309117864 1.406664909146094E-24 36.136465998205296
-3.5611564121571533 1.6882340541044373E-24 36.01641137684834
-3.5552260934025206 2.025549252124959E-24 35.89655651359682
-3.5492957746478875 2.4295235193502257E-24 35.776901408450705
-3.5433654558932544 2.913181586695501E-24 35.65744606141001
-3.5374351371386212 3.4920636697615555E-24 35.53819047247474
-3.531504818383988 4.1847054955380945E-24 35.41913464164488
-3.525574499629355 5.0132088057321E-24 35.30027856892045
-3.519644180874722 6.003919173496999E-24 35.18162225430142
-3.513713862120089 7.188231062367897E-24 35.06316569778784
-3.507783543365456 8.603543708363197E-24 34.94490889937966
-3.501853224610823 1.0294395718531204E-23 34.8268518590769
-3.49592290585619 1.2313811369344107E-23 34.708994576879554
-3.4899925871015567 1.4724897594568913E-23 34.59133705278764
-3.4840622683469236 1.7602737737100558E-23 34.473879286801136
-3.4781319495922904 2.1036636493657283E-23 34.35662127892005
-3.4722016308376578 2.5132780329436795E-23 34.2395630291444
-3.4662713120830246 3.0017389245047625E-23 34.122704537474156
-3.4603409933283915 3.5840449449187483E-23 34.00604580390933
-3.4544106745737584 4.2780132590059047E-23 33.88958682844992
-3.4484803558191253 5.1048026151429796E-23 33.77332761109594
-3.442550037064492 6.089532192385211E-23 33.65726815184737
-3.436619718309859 7.262013570184997E-23 33.54140845070422
-3.4306893995552263 8.657616221802474E-23 33.4257485076665
-3.424759080800593 1.031829056063145E-22 33.310288322734195
-3.41882876204596 1.2293776832716305E-22 33.1950278959073
-3.412898443291327 1.4643033158502923E-22 33.079967227185826
-3.406968124536694 1.7435921910800383E-22 32.96510631656978
-3.4010378057820607 2.0755200524259209E-22 32.850445164059145
-3.3951074870274276 2.469887094003703E-22 32.735983769653934
-3.389177168272795 2.9382951403001907E-22 32.62172213335414
-3.3832468495181613 3.494474548765279E-22 32.50766025515976
-3.3773165307635287 4.1546696313028574E-22 32.39379813507081
-3.3713862120088955 4.938092924327312E-22 32.280135773087274
-3.3654558932542624 5.867460434092458E-22 32.16667316920916
-3.3595255744996293 6.969622088974395E-22 32.05341032343646
-3.353595255744996 8.276304095240218E-22 31.940347235769185
-3.3476649369903635 9.82498277812014E-22 31.82748390620733
-3.34173461823573 1.1659912866304506E-21 31.71482033475088
-3.3358042994810972 1.3833337127546602E-21 31.602356521399866
-3.329873980726464 1.6406908881649855E-21 31.490092466154266
-3.323943661971831 1.945336431627445E-21 31.378028169014083
-3.318013343217198 2.3058487840512103E-21 31.26616362997932
-3.3120830244625648 2.7323421082069896E-21 31.154498849049975
-3.306152705707932 3.2367374741825727E-21 31.043033826226058
-3.3002223869532985 3.83308125686971E-21 30.931768561507543
-3.294292068198666 4.537918844557311E-21 30.820703054894466
-3.2883617494440327 5.370733125929324E-21 30.709837306386795
-3.2824314306893996 6.3544588184647536E-21 30.59917131598455
-3.2765011119347665 7.516085561604914E-21 30.488705083687723
-3.2705707931801333 8.887364866257482E-21 30.37843860949631
-3.2646404744255006 1.0505638538334897E-20 30.26837189341033
-3.258710155670867 1.2414809136169316E-20 30.15850493542975
-3.2527798369162344 1.4666476447163903E-20 30.048837735554603
-3.2468495181616013 1.7321267955999586E-20 29.93937029378487
-3.240919199406968 2.0450395915571125E-20 29.830102610120555
-3.234988880652335 2.4137479027343063E-20 29.721034684561662
-3.229058561897702 2.8480673011295947E-20 29.612166517108186
-3.2231282431430692 3.359516163747381E-20 29.50349810776014
-3.2171979243884357 3.961606826378563E-20 29.39502945651749
-3.211267605633803 4.670185776603876E-20 29.28676056338028
-3.20533728687917 5.503831017341903E-20 29.178691428348483
-3.1994069681245367 6.484316058685275E-20 29.070822051422102
-3.1934766493699036 7.637151534897629E-20 28.963152432601145
-3.1875463306152705 8.992217228784336E-20 28.855682571885602
-3.181616011860638 1.0584499355885152E-19 28.748412469275493
-3.1756856931060042 1.245495036071404E-19 28.64134212477078
-3.1697553743513716 1.465149125810229E-19 28.534471538371502
-3.1638250555967384 1.7230179773997354E-19 28.42780071007764
-3.1578947368421053 2.025657127033005E-19 28.321329639889196
-3.151964418087472 2.380730375673313E-19 28.215058327806172
-3.146034099332839 2.797194328893237E-19 28.108986773828562
-3.1401037805782064 3.2855131834293544E-19 28.003114977956383
-3.134173461823573 3.857908636990313E-19 27.89744294018961
-3.12824314306894 4.52865057064959E-19 27.79197066052827
-3.122312824314307 5.314395046221562E-19 27.68669813897234
-3.116382505559674 6.234577192727397E-19 27.58162537552183
-3.1104521868050408 7.311867747521322E-19 27.476752370176737
-3.1045218680504076 8.572703393135603E-19 27.372079122937066
-3.098591549295775 1.0047902618294342E-18 27.267605633802823
-3.0926612305411414 1.1773380662860278E-18 27.163331902773983
-3.0867309117865087 1.3790979218474288E-18 27.059257929850574
-3.0808005930318756 1.6149428991509422E-18 26.95538371503258
-3.0748702742772425 1.890546604108572E-18 26.851709258320003
-3.0689399555226093 2.2125126037779497E-18 26.748234559712845
-3.063009636767976 2.5885244311936954E-18 26.644959619211107
-3.057079318013343 3.027519384708058E-18 26.541884436814794
-3.05114899925871 3.539889830730688E-18 26.439009012523893
-3.0452186805040773 4.137716286346833E-18 26.33633334633842
-3.039288361749444 4.8350372110811536E-18 26.233857438258358
-3.033358042994811 5.648161187591115E-18 26.131581288283716
-3.027427724240178 6.596028033653489E-18 26.029504896414497
-3.021497405485545 7.70062637884092E-18 25.927628262650693
-3.0155670867309117 8.987476377509411E-18 25.82595138699231
-3.0096367679762785 1.0486187536542141E-17 25.724474269439348
-3.003706449221646 1.2231103136176371E-17 25.62319690999181
-2.9977761304670127 1.4262044443104308E-17 25.522119308649682
-2.9918458117123796 1.6625169888761065E-17 25.421241465412976
-2.9859154929577465 1.9373966648665017E-17 25.32056338028169
-2.9799851742031134 2.2570394652343507E-17 25.220085053255822
-2.9740548554484807 2.6286206025062676E-17 25.119806484335378
-2.968124536693847 3.0604466366199184E-17 25.019727673520343
-2.9621942179392144 3.562130816607312E-17 24.919848620810736
-2.9562638991845813 4.1447951123371455E-17 24.82016932620655
-2.950333580429948 4.8213029228589266E-17 24.720689789707777
-2.944403261675315 5.606527031586442E-17 24.621410011314424
-2.938472942920682 6.517658045932825E-17 24.52232999102649
-2.9325426241660493 7.574559321795108E-17 24.423449728843984
-2.9266123054114157 8.800175244819463E-17 24.32476922476688
-2.920681986656783 1.0221000735816091E-16 24.22628847879521
-2.9147516679021495 1.1867620984253797E-16 24.128007490928944
-2.9088213491475168 1.377533171100287E-16 24.029926261168114
-2.9028910303928837 1.5984851741609086E-16 23.932044789512698
-2.8969607116382505 1.8543141359561805E-16 23.8343630759627
-2.891030392883618 2.1504341833840558E-16 23.736881120518127
-2.8851000741289843 2.493085370889025E-16 23.63959892317896
-2.8791697553743516 2.8894573944815296E-16 23.542516483945224
-2.873239436619718 3.3478314842617034E-16 23.445633802816896
-2.8673091178650854 3.877743093086927E-16 23.348950879794003
-2.8613787991104522 4.490168367971162E-16 23.252467714876516
-2.855448480355819 5.197737810585608E-16 23.15618430806445
-2.8495181616011864 6.014981010680642E-16 23.06010065935781
-2.843587842846553 6.958606879099535E-16 22.96421676875658
-2.83765752409192 8.047824424046112E-16 22.868532636260777
-2.8317272053372866 9.304709815280058E-16 22.773048261870386
-2.825796886582654 1.0754626277105606E-15 22.677763645585422
-2.819866567828021 1.2426704254995644E-15 22.582678787405875
-2.8139362490733877 1.435439032668248E-15 22.487793687331745
-2.808005930318755 1.6576074492605326E-15 22.393108345363043
-2.8020756115641214 1.9135806800845435E-15 22.298622761499743
-2.7961452928094888 2.2084115758527717E-15 22.20433693574188
-2.790214974054855 2.547894267814468E-15 22.11025086808942
-2.7842846553002225 2.9386708029306533E-15 22.01636455854239
-2.7783543365455894 3.3883528043259036E-15 21.922678007100778
-2.7724240177909563 3.905660228203747E-15 21.82919121376458
-2.766493699036323 4.5005795673367854E-15 21.735904178533804
-2.76056338028169 5.1845441668044985E-15 21.642816901408448
-2.7546330615270573 5.9706396745361375E-15 21.549929382388516
-2.7487027427724238 6.8738380526904236E-15 21.45724162147399
-2.742772424017791 7.911264031887014E-15 21.3647536186649
-2.736842105263158 9.102498405446252E-15 21.272465373961218
-2.730911786508525 1.0469923142560413E-14 21.180376887362957
-2.7249814677538917 1.2039113956092927E-14 21.088488158870117
-2.7190511489992586 1.3839286701886517E-14 20.996799188482694
-2.713120830244626 1.5903804822605582E-14 20.905309976200698
-2.7071905114899923 1.8270755992069572E-14 20.814020522024105
-2.7012601927353597 2.098360717900827E-14 20.72293082595295
-2.6953298739807265 2.409194854703794E-14 20.632040887987202
-2.6893995552260934 2.7652337957050777E-14 20.541350708126878
-2.6834692364714603 3.172925935774801E-14 20.45086028637197
-2.677538917716827 3.63962100605651E-14 20.360569622722483
-2.6716085989621945 4.1736933820041924E-14 20.27047871717842
-2.665678280207561 4.784681880584302E-14 20.180587569739764
-2.6597479614529282 5.4834481987262496E-14 20.09089618040654
-2.653817642698295 6.282356418770083E-14 20.00140454917873
-2.647887323943662 7.195476314162694E-14 19.912112676056335
-2.641957005189029 8.238813534052086E-14 19.823020561039364
-2.6360266864343957 9.430570133251806E-14 19.734128204127813
-2.630096367679763 1.0791439349347077E-13 19.645435605321683
-2.6241660489251295 1.2344939017123923E-13 19.556942764620963
-2.618235730170497 1.4117788558302862E-13 19.468649682025674
-2.6123054114158637 1.6140335098746507E-13 19.3805563575358
-2.6063750926612306 1.8447034953679036E-13 19.29266279115134
-2.6004447739065975 2.1076997492681976E-13 19.204968982872302
-2.5945144551519643 2.4074599259971087E-13 19.117474932698684
-2.5885841363973316 2.749017719245598E-13 19.03018064063049
-2.582653817642698 3.1380810860282803E-13 18.943086106667703
-2.5767234988880654 3.581120486523968E-13 18.856191330810347
-2.5707931801334323 4.085468388631773E-13 18.769496313058404
-2.564862861378799 4.659431437525551E-13 18.683001053411886
-2.558932542624166 5.312416859624343E-13 18.59670555187078
-2.553002223869533 6.055074859331875E-13 18.510609808435095
-2.5470719051149002 6.899458977873791E-13 18.424713823104838
-2.5411415863602667 7.859206619060927E-13 18.339017595879987
-2.535211267605634 8.949742209583409E-13 18.253521126760564
-2.529280948851001 1.018850575454396E-12 18.168224415746558
-2.5233506300963677 1.159520987574792E-12 18.08312746283797
-2.5174203113417346 1.3192128784521682E-12 17.9982302680348
-2.5114899925871015 1.5004423046669697E-12 17.91353283133705
-2.505559673832469 1.7060504449180558E-12 17.829035152744726
-2.4996293550778352 1.939244578151725E-12 17.74473723225781
-2.4936990363232026 2.2036440904370033E-12 17.660639069876325
-2.4877687175685694 2.5033321101794058E-12 17.57674066560025
-2.4818383988139363 2.8429134405523046E-12 17.493042019429595
-2.475908080059303 3.2275795350481333E-12 17.409543131364362
-2.46997776130467 3.6631813476422094E-12 17.326244001404547
-2.4640474425500374 4.156310984137163E-12 17.243144629550155
-2.458117123795404 4.7143931868266345E-12 17.160245015801177
-2.452186805040771 5.345787801797421E-12 17.077545160157623
-2.446256486286138 6.059904508206701E-12 16.995045062619486
-2.440326167531505 6.86733123307688E-12 16.912744723186766
-2.4343958487768718 7.779977835032336E-12 16.830644141859466
-2.4284655300222386 8.811236817596073E-12 16.748743318637587
-2.422535211267606 9.976163028969729E-12 16.66704225352113
-2.4166048925129724 1.1291674522615219E-11 16.585540946510083
-2.4106745737583397 1.2776776993614089E-11 16.504239397604465
-2.4047442550037066 1.445281447208805E-11 16.42313760680426
-2.3988139362490735 1.6343749249541596E-11 16.342235574109477
-2.3928836174944403 1.8476474339710254E-11 16.26153329952011
-2.386953298739807 2.088116213551969E-11 16.181030783036167
-2.3810229799851745 2.3591653321539024E-11 16.100728024657645
-2.375092661230541 2.6645890540635744E-11 16.020625024384533
-2.3691623424759083 3.0086401798559924E-11 15.940721782216848
-2.363232023721275 3.396083912544643E-11 15.86101829815458
-2.357301704966642 3.832257860369987E-11 15.781514572197729
-2.351371386212009 4.323138852285825E-11 15.702210604346298
-2.345441067457376 4.875417313976773E-11 15.623106394600287
-2.339510748702743 5.496580031324503E-11 15.5442019429597
-2.3335804299481095 6.195002215345943E-11 15.465497249424521
-2.327650111193477 6.980049878529084E-11 15.386992313994774
-2.3217197924388437 7.862193638038048E-11 15.308687136670438
-2.3157894736842106 8.853135177372452E-11 15.230581717451523
-2.3098591549295775 9.965947725754109E-11 15.152676056338027
-2.3039288361749444 1.1215232054874882E-10 15.07497015332995
-2.2979985174203117 1.2617289646869055E-10 14.997464008427299
-2.292068198665678 1.4190314856774976E-10 14.920157621630054
-2.2861378799110454 1.5954608078741625E-10 14.843050992938242
-2.2802075611564123 1.7932812129359045E-10 14.766144122351841
-2.274277242401779 2.015017428542491E-10 14.689437009870861
-2.268346923647146 2.2634836659026564E-10 14.6129296554953
-2.262416604892513 2.541815786199936E-10 14.536622059225156
-2.2564862861378803 2.8535069206770294E-10 14.46051422106044
-2.2505559673832467 3.202446901364511E-10 14.384606141001129
-2.244625648628614 3.5929658948281116E-10 14.30889781904725
-2.238695329873981 4.029882670015395E-10 14.233389255198786
-2.2327650111193478 4.5185579736251764E-10 14.158080449455737
-2.2268346923647147 5.064953532724046E-10 14.082971401818112
-2.2209043736100815 5.675697254943075E-10 14.008062112285904
-2.214974054855449 6.358155251882263E-10 13.93335258085912
-2.2090437361008153 7.120511371739251E-10 13.858842807537746
-2.2031134173461826 7.97185499310445E-10 13.7845327923218
-2.1971830985915495 8.922277903804677E-10 13.710422535211269
-2.1912527798369164 9.982981167147503E-10 13.636512036206158
-2.1853224610822832 1.1166392963475953E-9 13.562801295306466
-2.17939214232765 1.2486298488188802E-9 13.48929031251219
-2.1734618235730174 1.395798308896363E-9 13.415979087823343
-2.167531504818384 1.5598389935536704E-9 13.342867621239902
-2.161601186063751 1.7426293635798192E-9 13.26995591276189
-2.1556708673091176 1.946249134296345E-9 13.197243962389292
-2.149740548554485 2.1730013041053717E-9 13.12473177012212
-2.143810229799852 2.4254352850799696E-9 13.05241933596036
-2.1378799110452187 2.706372336637897E-9 12.980306659904022
-2.131949592290586 3.0189335216194964E-9 12.908393741953109
-2.1260192735359524 3.3665704239366354E-9 12.836680582107602
-2.1200889547813198 3.753098888496926E-9 12.765167180367525
-2.114158636026686 4.182736067470027E-9 12.693853536732858
-2.1082283172720535 4.660141082294322E-9 12.622739651203622
-2.1022979985174204 5.190459638276421E-9 12.551825523779799
-2.0963676797627873 5.779372958377776E-9 12.481111154461393
-2.0904373610081546 6.4331514349884105E-9 12.410596543248413
-2.084507042253521 7.158713433346231E-9 12.340281690140843
-2.0785767234988883 7.963689717973147E-9 12.270166595138702
-2.0726464047442548 8.856494014281978E-9 12.200251258241968
-2.066716085989622 9.84640026159085E-9 12.130535679450665
-2.060785767234989 1.0943627161410177E-8 12.061019858764778
-2.054855448480356 1.2159430676303299E-8 11.991703796184307
