# 0.03811  hbar^2/(2m)
# -4.0 xmin
# 4.0 xmax
# 1350 ngrid
# 1 nnode 
# 0.1 vscale
# -13.659782276223194  Energy
#offset=0
#offset-(1.44/abs(x))
-4.0 0.0 0.0
-3.994069681245367 5.851606760244166E-32 -0.3605345211581292
-3.9881393624907338 1.1775102247788002E-31 -0.36107063197026024
-3.9822090437361006 1.784325300762338E-31 -0.361608339538347
-3.976278724981468 2.4130596680669596E-31 -0.36214765100671137
-3.970348406226835 3.071435737277185E-31 -0.36268857356235995
-3.9644180874722017 3.7675393871925834E-31 -0.36323111443530287
-3.9584877687175686 4.509919235270322E-31 -0.3637752808988764
-3.9525574499629355 5.3076915750327275E-31 -0.3643210802700675
-3.9466271312083023 6.170652267975699E-31 -0.3648685199098422
-3.940696812453669 7.10939696259418E-31 -0.3654176072234763
-3.9347664936990365 8.135451115049857E-31 -0.3659683496608892
-3.9288361749444034 9.261411405989564E-31 -0.3665207547169811
-3.9229058561897703 1.0501100287547301E-30 -0.36707482993197277
-3.916975537435137 1.186973555533471E-30 -0.36763058289174866
-3.911045218680504 1.3384117024210581E-30 -0.36818802122820316
-3.905114899925871 1.5062832596070272E-30 -0.36874715261958996
-3.899184581171238 1.6926486245372702E-30 -0.3693079847908745
-3.893254262416605 1.8997950716531587E-30 -0.36987052551408983
-3.887323943661972 2.1302648029922087E-30 -0.3704347826086956
-3.881393624907339 2.386886123379658E-30 -0.37100076394194037
-3.8754633061527057 2.6728081222030333E-30 -0.3715684774292272
-3.8695329873980726 2.9915392867009714E-30 -0.3721379310344827
-3.8636026686434395 3.346990519838634E-30 -0.3727091327705295
-3.8576723498888064 3.743523089773838E-30 -0.37328209069946194
-3.8517420311341732 4.186002098300295E-30 -0.3738568129330254
-3.8458117123795406 4.679856123225766E-30 -0.3744333076329992
-3.8398813936249074 5.23114376522992E-30 -0.375011583011583
-3.8339510748702743 5.846627914273846E-30 -0.3755916473317865
-3.828020756115641 6.53385864513431E-30 -0.37617350890782336
-3.822090437361008 7.301265757266679E-30 -0.37675717610550813
-3.816160118606375 8.158262092252841E-30 -0.3773426573426573
-3.810229799851742 9.115358894008032E-30 -0.37792996108949417
-3.804299481097109 1.0184294624316367E-29 -0.37851909586905685
-3.798369162342476 1.137817881094131E-29 -0.37911007025761123
-3.792438843587843 1.271165268952791E-29 -0.3797028928850664
-3.7865085248332098 1.4201068606027534E-29 -0.38029757243539547
-3.7805782060785766 1.5864690375945527E-29 -0.3808941176470588
-3.7746478873239435 1.772291705314442E-29 -0.38149253731343286
-3.7687175685693104 1.97985328473644E-29 -0.38209284028324153
-3.7627872498146777 2.2116986249550057E-29 -0.38269503546099287
-3.7568569310600446 2.4706701781408411E-29 -0.3832991318074191
-3.7509266123054115 2.759942818473514E-29 -0.3839051383399209
-3.7449962935507783 3.083062731181162E-29 -0.3845130641330166
-3.739065974796145 3.443990847604266E-29 -0.3851229183187946
-3.733135656041512 3.847151357805673E-29 -0.3857347100873709
-3.727205337286879 4.297485894352332E-29 -0.38634844868735085
-3.7212750185322463 4.800514050254188E-29 -0.38696414342629476
-3.715344699777613 5.36240097150997E-29 -0.3875818036711891
-3.70941438102298 5.990032851224528E-29 -0.38820143884892083
-3.703484062268347 6.691101248884805E-29 -0.3888230584467574
-3.697553743513714 7.474197266291846E-29 -0.3894466720128308
-3.6916234247590807 8.348916732162574E-29 -0.3900722891566265
-3.6856931060044476 9.32597768200933E-29 -0.3906999195494771
-3.679762787249815 1.0417351570221434E-28 -0.3913295729250604
-3.6738324684951817 1.163640981914686E-28 -0.39196125907990315
-3.6679021497405486 1.299808749745378E-28 -0.3925949878738884
-3.6619718309859155 1.4519066129430643E-28 -0.3932307692307692
-3.6560415122312824 1.6217977870716E-28 -0.3938686131386861
-3.6501111934766493 1.8115633547090989E-28 -0.3945085296506905
-3.644180874722016 2.0235277344606065E-28 -0.3951505288852726
-3.6382505559673834 2.260287126501015E-28 -0.39579462102689483
-3.6323202372127503 2.524741282418026E-28 -0.3964408163265306
-3.626389918458117 2.8201289877453706E-28 -0.3970891251022077
-3.620459599703484 3.1500676909400264E-28 -0.3977395577395577
-3.614529280948851 3.518597763217614E-28 -0.3983921246923708
-3.608598962194218 3.9302319302357265E-28 -0.3990468364831553
-3.6026686434395847 4.390010479796091E-28 -0.3997037037037037
-3.596738324684952 4.903562920294285E-28 -0.4003627370156636
-3.590808005930319 5.477176843440988E-28 -0.4010239471511147
-3.584877687175686 6.11787483277313E-28 -0.40168734491315133
-3.5789473684210527 6.833500357740183E-28 -0.4023529411764706
-3.5730170496664195 7.632813702889197E-28 -0.4030207468879668
-3.5670867309117864 8.525599104220671E-28 -0.40369077306733164
-3.5611564121571533 9.522784401640968E-28 -0.4043630308076603
-3.5552260934025206 1.063657466926482E-27 -0.40503753127606335
-3.5492957746478875 1.1880601455987835E-27 -0.4057142857142857
-3.5433654558932544 1.3270089459334889E-27 -0.4063933054393305
-3.5374351371386212 1.4822042668420562E-27 -0.4070746018440905
-3.531504818383988 1.6555452249527183E-27 -0.4077581863979849
-3.525574499629355 1.8491528713213156E-27 -0.408444070647603
-3.519644180874722 2.0653961198244674E-27 -0.40913226621735466
-3.513713862120089 2.3069207038611488E-27 -0.4098227848101265
-3.507783543365456 2.5766815149476732E-27 -0.41051563820794584
-3.501853224610823 2.877978718062756E-27 -0.41121083827265026
-3.49592290585619 3.2144980846868255E-27 -0.4119083969465649
-3.4899925871015567 3.5903560359447885E-27 -0.41260832625318605
-3.4840622683469236 4.0101499457313434E-27 -0.41331063829787235
-3.4781319495922904 4.479014317872999E-27 -0.4140153452685422
-3.4722016308376578 5.002683523043308E-27 -0.41472245943637914
-3.4662713120830246 5.587561861170662E-27 -0.415431993156544
-3.4603409933283915 6.240801804436365E-27 -0.41614395886889455
-3.4544106745737584 6.970391375743382E-27 -0.41685836909871243
-3.4484803558191253 7.785251728958673E-27 -0.41757523645743766
-3.442550037064492 8.695346121651893E-27 -0.4182945736434108
-3.436619718309859 9.711801609985857E-27 -0.4190163934426229
-3.4306893995552263 1.0847044950551968E-26 -0.4197407087294727
-3.424759080800593 1.2114954367176131E-26 -0.42046753246753243
-3.41882876204596 1.3531029034157404E-26 -0.4211968777103209
-3.412898443291327 1.5112578343398245E-26 -0.42192875760208515
-3.406968124536694 1.6878933264071973E-26 -0.42266318537859005
-3.4010378057820607 1.8851682372786723E-26 -0.42340017436791627
-3.3951074870274276 2.105493543292442E-26 -0.42413973799126636
-3.389177168272795 2.3515617737619556E-26 -0.4248818897637795
-3.3832468495181613 2.626379880578308E-26 -0.425626643295355
-3.3773165307635287 2.933305943923573E-26 -0.42637401229148375
-3.3713862120088955 3.276090161648858E-26 -0.42712401055408966
-3.3654558932542624 3.658920622068491E-26 -0.42787665198237884
-3.3595255744996293 4.0864744182051313E-26 -0.42863195057369813
-3.353595255744996 4.5639747265986466E-26 -0.42938992042440316
-3.3476649369903635 5.097254546456532E-26 -0.4301505757307351
-3.34173461823573 5.692827876059338E-26 -0.4309139307897072
-3.3358042994810972 6.35796919392824E-26 -0.43167999999999995
-3.329873980726464 7.10080221341563E-26 -0.4324487978628673
-3.323943661971831 7.930398992323862E-26 -0.43322033898305085
-3.318013343217198 8.856890605265897E-26 -0.43399463806970506
-3.3120830244625648 9.891590727288273E-26 -0.43477170993733216
-3.306152705707932 1.1047133634494148E-25 -0.4355515695067264
-3.3002223869532985 1.2337628302943848E-25 -0.43633423180592995
-3.294292068198666 1.3778830483106996E-25 -0.4371197119711971
-3.2883617494440327 1.5388334845977023E-25 -0.4379080252479711
-3.2824314306893996 1.7185789541296146E-25 -0.4386991869918699
-3.2765011119347665 1.91931357811472E-25 -0.4394932126696832
-3.2705707931801333 2.143487536676425E-25 -0.4402901178603808
-3.2646404744255006 2.39383694164991E-25 -0.44108991825613075
-3.258710155670867 2.673417193258897E-25 -0.4418926296633303
-3.2527798369162344 2.9856402268316393E-25 -0.44269826800364626
-3.2468495181616013 3.334316103048774E-25 -0.44350684931506845
-3.240919199406968 3.7236994480632885E-25 -0.44431838975297344
-3.234988880652335 4.158541308836727E-25 -0.4451329055912007
-3.229058561897702 4.6441470549126245E-25 -0.4459504132231405
-3.2231282431430692 5.1864410313984195E-25 -0.44677092916283345
-3.2171979243884357 5.792038750044119E-25 -0.44759447004608294
-3.211267605633803 6.468327496987165E-25 -0.4484210526315789
-3.20533728687917 7.223556338091851E-25 -0.44925069380203514
-3.1994069681245367 8.066936617091239E-25 -0.45008341056533824
-3.1934766493699036 9.0087541693276E-25 -0.4509192200557103
-3.1875463306152705 1.0060494616333176E-24 -0.4517581395348837
-3.181616011860638 1.1234983265525837E-24 -0.4526001863932898
-3.1756856931060042 1.2546541316845021E-24 -0.4534453781512605
-3.1697553743513716 1.4011160276377E-24 -0.4542937324602432
-3.1638250555967384 1.5646696698321564E-24 -0.45514526710402997
-3.1578947368421053 1.7473089623720407E-24 -0.45599999999999996
-3.151964418087472 1.9512603360199124E-24 -0.45685794920037626
-3.146034099332839 2.179009855491741E-24 -0.4577191328934967
-3.1401037805782064 2.4333334856711958E-24 -0.4585835694050991
-3.134173461823573 2.717330884722495E-24 -0.4594512771996216
-3.12824314306894 3.03446313492946E-24 -0.46032227488151656
-3.122312824314307 3.3885948699240204E-24 -0.46119658119658113
-3.116382505559674 3.784041310370527E-24 -0.4620742150333016
-3.1104521868050408 4.225620779790582E-24 -0.46295519542421354
-3.1045218680504076 4.718713338769639E-24 -0.4638395415472779
-3.098591549295775 5.269326250088584E-24 -0.46472727272727266
-3.0926612305411414 5.8841670702716805E-24 -0.46561840843720037
-3.0867309117865087 6.5707252556424945E-24 -0.4665129682997118
-3.0808005930318756 7.337363274354137E-24 -0.46741097208854665
-3.0748702742772425 8.19341833126277E-24 -0.4683124397299903
-3.0689399555226093 9.149315941342285E-24 -0.4692173913043478
-3.063009636767976 1.0216696731155108E-23 -0.47012584704743465
-3.057079318013343 1.1408558008441829E-23 -0.4710378273520854
-3.05114899925871 1.2739411819116576E-23 -0.4719533527696793
-3.0452186805040773 1.422546141102699E-23 -0.4728724440116845
-3.039288361749444 1.5884798247181555E-23 -0.4737951219512195
-3.033358042994811 1.7737621960468597E-23 -0.4747214076246334
-3.027427724240178 1.9806485920210162E-23 -0.4756513222331048
-3.021497405485545 2.211657139158183E-23 -0.47658488714425906
-3.0155670867309117 2.469599361574869E-23 -0.47752212389380533
-3.0096367679762785 2.757614352571788E-23 -0.47846305418719215
-3.003706449221646 3.07920692450779E-23 -0.4794076999012833
-2.9977761304670127 3.438290199921597E-23 -0.4803560830860534
-2.9918458117123796 3.839233160711793E-23 -0.48130822596630324
-2.9859154929577465 4.286913732297895E-23 -0.4822641509433962
-2.9799851742031134 4.7867780467864297E-23 -0.48322388059701493
-2.9740548554484807 5.34490660406775E-23 -0.4841874376869391
-2.968124536693847 5.968088133378415E-23 -0.48515484515484514
-2.9621942179392144 6.663902051191931E-23 -0.48612612612612605
-2.9562638991845813 7.440810515476741E-23 -0.4871013039117352
-2.950333580429948 8.30826119264484E-23 -0.4880804020100502
-2.944403261675315 9.276801983314095E-23 -0.4890634441087613
-2.938472942920682 1.0358209097891951E-22 -0.490050454086781
-2.9325426241660493 1.1565630034710432E-22 -0.4910414560161779
-2.9266123054114157 1.291374319395745E-22 -0.49203647416413376
-2.920681986656783 1.4418936062140633E-22 -0.4930355329949238
-2.9147516679021495 1.6099504126722872E-22 -0.4940386571719227
-2.9088213491475168 1.797587293160305E-22 -0.495045871559633
-2.9028910303928837 2.0070845964314887E-22 -0.49605720122574054
-2.8969607116382505 2.2409881378568743E-22 -0.49707267144319345
-2.891030392883618 2.502140090484525E-22 -0.4980923076923076
-2.8851000741289843 2.793713469138386E-22 -0.49911613566289825
-2.8791697553743516 3.1192506252802567E-22 -0.5001441812564366
-2.873239436619718 3.482706218899061E-22 -0.5011764705882353
-2.8673091178650854 3.888495187869848E-22 -0.5022130299896587
-2.8613787991104522 4.341546295695302E-22 -0.5032538860103627
-2.855448480355819 4.847361906035362E-22 -0.5042990654205607
-2.8495181616011864 5.412084707760873E-22 -0.5053485952133194
-2.843587842846553 6.042572198344797E-22 -0.5064025026068821
-2.83765752409192 6.746479827244289E-22 -0.5074608150470219
-2.8317272053372866 7.532353805662124E-22 -0.5085235602094241
-2.825796886582654 8.409734705970545E-22 -0.5095907660020986
-2.819866567828021 9.389273104545664E-22 -0.5106624605678233
-2.8139362490733877 1.0482858667370582E-21 -0.5117386722866175
-2.808005930318755 1.1703764240277543E-21 -0.512819429778247
-2.8020756115641214 1.3066806687074484E-21 -0.5139047619047619
-2.7961452928094888 1.4588526421227623E-21 -0.5149946977730646
-2.790214974054855 1.6287387802691043E-21 -0.5160892667375133
-2.7842846553002225 1.818400282361162E-21 -0.5171884984025559
-2.7783543365455894 2.0301380788034064E-21 -0.5182924226254002
-2.7724240177909563 2.26652070047794E-21 -0.5194010695187166
-2.766493699036323 2.5304153863158143E-21 -0.5205144694533762
-2.76056338028169 2.825022805233151E-21 -0.5216326530612245
-2.7546330615270573 3.1539158121666366E-21 -0.5227556512378901
-2.7487027427724238 3.521082706660321E-21 -0.5238834951456312
-2.742772424017791 3.930975516824321E-21 -0.5250162162162162
-2.736842105263158 4.3885638921611815E-21 -0.5261538461538461
-2.730911786508525 4.899395256468321E-21 -0.5272964169381107
-2.7249814677538917 5.469661947591012E-21 -0.5284439608269859
-2.7190511489992586 6.1062761551299955E-21 -0.5295965103598691
-2.713120830244626 6.816953561316771E-21 -0.5307540983606557
-2.7071905114899923 7.610306695291337E-21 -0.5319167579408544
-2.7012601927353597 8.495949128216181E-21 -0.5330845225027442
-2.6953298739807265 9.484611767447915E-21 -0.5342574257425742
-2.6893995552260934 1.0588272653938436E-20 -0.5354355016538037
-2.6834692364714603 1.1820301829907989E-20 -0.5366187845303867
-2.677538917716827 1.3195623025582986E-20 -0.5378073089700997
-2.6716085989621945 1.473089411660938E-20 -0.5390011098779134
-2.665678280207561 1.644470853007816E-20 -0.5402002224694105
-2.6597479614529282 1.8357820029656044E-20 -0.5414046822742474
-2.653817642698295 2.0493393592139978E-20 -0.5426145251396648
-2.647887323943662 2.2877285402238414E-20 -0.5438297872340425
-2.641957005189029 2.553835534330764E-20 -0.545050505050505
-2.6360266864343957 2.8508815753357516E-20 -0.5462767154105737
-2.630096367679763 3.1824620652596465E-20 -0.5475084554678692
-2.6241660489251295 3.552590013636244E-20 -0.5487457627118645
-2.618235730170497 3.965744517134729E-20 -0.5499886749716874
-2.6123054114158637 4.4269248640103374E-20 -0.5512372304199773
-2.6063750926612306 4.941710915622086E-20 -0.5524914675767918
-2.6004447739065975 5.516330492841876E-20 -0.553751425313569
-2.5945144551519643 6.157734579518599E-20 -0.5550171428571429
-2.5885841363973316 6.873681249266827E-20 -0.5562886597938144
-2.582653817642698 7.672829326852836E-20 -0.5575660160734788
-2.5767234988880654 8.564842912611802E-20 -0.558849252013809
-2.5707931801334323 9.560508029055975E-20 -0.5601384083044982
-2.564862861378799 1.0671862794693813E-19 -0.5614335260115607
-2.558932542624166 1.1912342692825415E-19 -0.5627346465816918
-2.553002223869533 1.3296942684663286E-19 -0.5640418118466899
-2.5470719051149002 1.484239811872886E-19 -0.5653550640279393
-2.5411415863602667 1.6567386614524813E-19 -0.5666744457409568
-2.535211267605634 1.849275335069361E-19 -0.568
-2.529280948851001 2.0641762469268512E-19 -0.5693317702227432
-2.5233506300963677 2.3040377621580024E-19 -0.5706698002350176
-2.5174203113417346 2.571757503166311E-19 -0.5720141342756183
-2.5114899925871015 2.8705692843818316E-19 -0.5733648170011806
-2.505559673832469 3.204082095699859E-19 -0.5747218934911241
-2.4996293550778352 3.5763236035149097E-19 -0.576085409252669
-2.4936990363232026 3.9917886925350116E-19 -0.5774554102259215
-2.4877687175685694 4.455493632110643E-19 -0.5788319427890345
-2.4818383988139363 4.973036518364468E-19 -0.5802150537634408
-2.475908080059303 5.55066471877162E-19 -0.5816047904191617
-2.46997776130467 6.195350129918201E-19 -0.5830012004801921
-2.4640474425500374 6.914873152964977E-19 -0.5844043321299638
-2.458117123795404 7.717916395986902E-19 -0.5858142340168878
-2.452186805040771 8.614169229100013E-19 -0.5872309552599757
-2.446256486286138 9.614444448522825E-19 -0.5886545454545454
-2.440326167531505 1.0730808451008149E-18 -0.5900850546780072
-2.4343958487768718 1.1976726482162056E-18 -0.5915225334957369
-2.4284655300222386 1.3367224702978521E-18 -0.592967032967033
-2.422535211267606 1.491907102062423E-18 -0.5944186046511627
-2.4166048925129724 1.66509768545205E-18 -0.595877300613497
-2.4106745737583397 1.858382225977929E-18 -0.5973431734317343
-2.4047442550037066 2.0740907110058754E-18 -0.5988162762022194
-2.3988139362490735 2.314823135425893E-18 -0.6002966625463535
-2.3928836174944403 2.5834807709912185E-18 -0.6017843866171003
-2.386953298739807 2.883301054480157E-18 -0.6032795031055901
-2.3810229799851745 3.2178965131906247E-18 -0.6047820672478206
-2.375092661230541 3.591298194640712E-18 -0.6062921348314607
-2.3691623424759083 4.008004121296425E-18 -0.6078097622027534
-2.363232023721275 4.473033351324378E-18 -0.6093350062735257
-2.357301704966642 4.9919862934911215E-18 -0.6108679245283019
-2.351371386212009 5.571111999203351E-18 -0.6124085750315258
-2.345441067457376 6.217383238198259E-18 -0.6139570164348925
-2.339510748702743 6.938580257547356E-18 -0.6155133079847908
-2.3335804299481095 7.74338422754189E-18 -0.6170775095298603
-2.327650111193477 8.64148149392302E-18 -0.6186496815286623
-2.3217197924388437 9.643679885187673E-18 -0.6202298850574712
-2.3157894736842106 1.0762038467883184E-17 -0.6218181818181818
-2.3098591549295775 1.201001230361949E-17 -0.6234146341463415
-2.3039288361749444 1.3402613940894266E-17 -0.625019305019305
-2.2979985174203117 1.495659357488162E-17 -0.6266322580645161
-2.292068198665678 1.6690640031463312E-17 -0.6282535575679172
-2.2861378799110454 1.8625604980641276E-17 -0.6298832684824902
-2.2802075611564123 2.078475306202614E-17 -0.631521456436931
-2.274277242401779 2.3194040914654897E-17 -0.6331681877444589
-2.268346923647146 2.5882428448637445E-17 -0.6348235294117647
-2.262416604892513 2.8882226081177727E-17 -0.6364875491480996
-2.2564862861378803 3.2229482088943924E-17 -0.6381603153745071
-2.2505559673832467 3.5964414707684544E-17 -0.6398418972332016
-2.244625648628614 4.013189414410236E-17 -0.6415323645970937
-2.238695329873981 4.478198026066049E-17 -0.6432317880794701
-2.2327650111193478 4.9970522358289193E-17 -0.6449402390438247
-2.2268346923647147 5.575982822278959E-17 -0.6466577896138481
-2.2209043736100815 6.221941042689819E-17 -0.6483845126835781
-2.214974054855449 6.942681880130713E-17 -0.6501204819277107
-2.2090437361008153 7.746856901537794E-17 -0.6518657718120806
-2.2031134173461826 8.644117835405202E-17 -0.6536204576043068
-2.1971830985915495 9.645232105515977E-17 -0.6553846153846153
-2.1912527798369164 1.0762211699614082E-16 -0.6571583220568334
-2.1853224610822832 1.2008456910802838E-16 -0.6589416553595657
-2.17939214232765 1.3398916666628867E-16 -0.660734693877551
-2.1734618235730174 1.4950267358377084E-16 -0.6625375170532058
-2.167531504818384 1.6681112303406316E-16 -0.6643502051983584
-2.161601186063751 1.8612204219010808E-16 -0.6661728395061728
-2.1556708673091176 2.0766693360214303E-16 -0.6680055020632738
-2.149740548554485 2.3170404279339607E-16 -0.6698482758620689
-2.143810229799852 2.585214450576938E-16 -0.671701244813278
-2.1378799110452187 2.884404882406091E-16 -0.6735644937586684
-2.131949592290586 3.2181963252000077E-16 -0.6754381084840054
-2.1260192735359524 3.5905873292295033E-16 -0.6773221757322175
-2.1200889547813198 4.0060381558011997E-16 -0.6792167832167831
-2.114158636026686 4.46952404587789E-16 -0.6811220196353437
-2.1082283172720535 4.986594628917823E-16 -0.6830379746835442
