# 0.03811  hbar^2/(2m)
# -4.0 xmin
# 4.0 xmax
# 1350 ngrid
# 3 nnode 
# 0.1 vscale
# -15.065003539099859  Energy
#offset=0
#s=1
#offset+(-1.44/abs(x+(s/2)))+((-1.44/abs(x-(s/2))))
-4.0 0.0 0.0
-3.994069681245367 7.971362214144224E-29 -0.7325491376710238
-3.9881393624907338 1.6048270837529371E-28 -0.7336731942321912
-3.9822090437361006 2.4337654477060232E-28 -0.7348007576724769
-3.976278724981468 3.2949237761232613E-28 -0.7359318446585364
-3.970348406226835 4.1996993100062414E-28 -0.7370664719641407
-3.9644180874722017 5.160064820609318E-28 -0.7382046564710462
-3.9584877687175686 6.188726930347135E-28 -0.7393464151698768
-3.9525574499629355 7.29929409439784E-28 -0.7404917651610112
-3.9466271312083023 8.506456461696951E-28 -0.7416407236554811
-3.940696812453669 9.826179990098435E-28 -0.7427933079758776
-3.9347664936990365 1.1275917377881705E-27 -0.743949535557267
-3.9288361749444034 1.2874838594963911E-27 -0.745109423948115
-3.9229058561897703 1.4644084055038487E-27 -0.7462729908112208
-3.916975537435137 1.6607043767788793E-27 -0.7474402539246602
-3.911045218680504 1.8789666152232218E-27 -0.7486112311827384
-3.905114899925871 2.122080058262591E-27 -0.749785940596952
-3.899184581171238 2.393257818233844E-27 -0.7509644002969612
-3.893254262416605 2.6960835884494476E-27 -0.7521466285315708
-3.887323943661972 3.034558934764513E-27 -0.7533326436697223
-3.881393624907339 3.41315609576861E-27 -0.7545224642014956
-3.8754633061527057 3.836876987218538E-27 -0.75571610873912
-3.8695329873980726 4.3113191879715076E-27 -0.7569135960179969
-3.8636026686434395 4.8427497765432786E-27 -0.7581149448977313
-3.8576723498888064 5.438187990709154E-27 -0.7593201743631757
-3.8517420311341732 6.1054977986441844E-27 -0.7605293035254825
-3.8458117123795406 6.853491600486714E-27 -0.7617423516231688
-3.8398813936249074 7.69204642561877E-27 -0.7629593380231916
-3.8339510748702743 8.632234155310191E-27 -0.7641802822220332
-3.828020756115641 9.686467484828448E-27 -0.7654052038467994
-3.822090437361008 1.0868663546094525E-26 -0.7666341226563276
-3.816160118606375 1.2194427344183672E-26 -0.7678670585423066
-3.810229799851742 1.368125742147633E-26 -0.7691040315304081
-3.804299481097109 1.534877645547778E-26 -0.7703450617814303
-3.798369162342476 1.7218989824079675E-26 -0.7715901695924532
-3.792438843587843 1.931657553963294E-26 -0.772839375398005
-3.7865085248332098 2.1669209365462227E-26 -0.7740926997712412
-3.7805782060785766 2.4307929390785246E-26 -0.7753501634251367
-3.7746478873239435 2.726754485847036E-26 -0.7766117872136897
-3.7687175685693104 3.058709462147198E-26 -0.7778775921331378
-3.7627872498146777 3.431036125575083E-26 -0.7791475993231868
-3.7568569310600446 3.8486447588562906E-26 -0.7804218300682544
-3.7509266123054115 4.317042322077254E-26 -0.7817003057987238
-3.7449962935507783 4.842404954105778E-26 -0.7829830480922129
-3.739065974796145 5.431659276057896E-26 -0.7842700786748558
-3.733135656041512 6.092573565238308E-26 -0.7855614194225984
-3.727205337286879 6.833859997566158E-26 -0.7868570923625073
-3.7212750185322463 7.665289301794916E-26 -0.7881571196740927
-3.715344699777613 8.597819331747973E-26 -0.7894615236906459
-3.70941438102298 9.643739245454779E-26 -0.79077032690059
-3.703484062268347 1.0816831184878375E-25 -0.7920835519488455
-3.697553743513714 1.2132551579556437E-25 -0.7934012216382111
-3.6916234247590807 1.3608234454941637E-25 -0.7947233589307587
-3.6856931060044476 1.5263319414894518E-25 -0.796049986949243
-3.679762787249815 1.711960729143249E-25 -0.797381128978527
-3.6738324684951817 1.9201546817708875E-25 -0.7987168084670229
-3.6679021497405486 2.1536556087036114E-25 -0.8000570490281472
-3.6619718309859155 2.415538301690167E-25 -0.8014018744417939
-3.6560415122312824 2.7092509548322965E-25 -0.8027513086558211
-3.6501111934766493 3.0386604884240967E-25 -0.8041053757875554
-3.644180874722016 3.4081033713460493E-25 -0.8054641001253127
-3.6382505559673834 3.8224426087320085E-25 -0.8068275061299337
-3.6323202372127503 4.287131642423946E-25 -0.8081956184363397
-3.626389918458117 4.808286002311644E-25 -0.8095684618551009
-3.620459599703484 5.3927636482072765E-25 -0.810946061374026
-3.614529280948851 6.048255055755628E-25 -0.8123284421597663
-3.608598962194218 6.783384227518194E-25 -0.8137156295594397
-3.6026686434395847 7.60782195346183E-25 -0.8151076491022706
-3.596738324684952 8.532412805500336E-25 -0.8165045265012496
-3.590808005930319 9.569317530576738E-25 -0.8179062876548107
-3.584877687175686 1.0732172708385078E-24 -0.8193129586485264
-3.5789473684210527 1.2036269765847145E-24 -0.8207245657568238
-3.5730170496664195 1.3498755693834647E-24 -0.8221411354447177
-3.5670867309117864 1.5138858095670098E-24 -0.8235626943695635
-3.5611564121571533 1.6978137515359877E-24 -0.824989269382831
-3.5552260934025206 1.9040770350468906E-24 -0.8264208875318958
-3.5492957746478875 2.1353866054698364E-24 -0.8278575760618535
-3.5433654558932544 2.394782278380023E-24 -0.8292993624173515
-3.5374351371386212 2.6856726141310575E-24 -0.8307462742444435
-3.531504818383988 3.0118796244270132E-24 -0.8321983393924639
-3.525574499629355 3.3776888960982205E-24 -0.8336555859159245
-3.519644180874722 3.787905788117919E-24 -0.8351180420764306
-3.513713862120089 4.247918437297087E-24 -0.8365857363446214
-3.507783543365456 4.763768397098815E-24 -0.8380586974021309
-3.501853224610823 5.342229833782311E-24 -0.8395369541435708
-3.49592290585619 5.990898315921224E-24 -0.8410205356785376
-3.4899925871015567 6.718290358699635E-24 -0.8425094713336421
-3.4840622683469236 7.533955024906172E-24 -0.8440037906545604
-3.4781319495922904 8.448599042054113E-24 -0.845503523408112
-3.4722016308376578 9.474227071605995E-24 -0.8470086995843582
-3.4662713120830246 1.0624298964175834E-23 -0.8485193493987273
-3.4603409933283915 1.1913906056399685E-23 -0.8500355032941632
-3.4544106745737584 1.33599688137954E-23 -0.8515571919432989
-3.4484803558191253 1.498145840261439E-23 -0.8530844462506555
-3.442550037064492 1.679964508605165E-23 -0.8546172973548672
-3.436619718309859 1.883837669029319E-23 -0.8561557766309313
-3.4306893995552263 2.112439077830148E-23 -0.8576999156924852
-3.424759080800593 2.3687664609078625E-23 -0.8592497463941098
-3.41882876204596 2.656180745312932E-23 -0.8608053008336598
-3.412898443291327 2.978450038738818E-23 -0.8623666113546222
-3.406968124536694 3.339798931216904E-23 -0.8639337105485011
-3.4010378057820607 3.7449637626796054E-23 -0.8655066312572322
-3.3951074870274276 4.1992545778518225E-23 -0.8670854065756246
-3.389177168272795 4.708624577120963E-23 -0.8686700698538327
-3.3832468495181613 5.279747969755848E-23 -0.8702606546998566
-3.3773165307635287 5.920107245365575E-23 -0.8718571949820723
-3.3713862120088955 6.638091002235063E-23 -0.873459724831793
-3.3654558932542624 7.443103608740211E-23 -0.8750682786458597
-3.3595255744996293 8.345688128220574E-23 -0.8766828910892641
-3.353595255744996 9.357664110475035E-23 -0.8783035970978019
-3.3476649369903635 1.0492282046691407E-22 -0.8799304318807588
-3.34173461823573 1.1764396501640286E-22 -0.8815634309236288
-3.3358042994810972 1.3190660180176107E-22 -0.8832026299908642
-3.329873980726464 1.4789741457653125E-22 -0.8848480651286614
-3.323943661971831 1.6582568209321184E-22 -0.8864997726677781
-3.318013343217198 1.859260111608133E-22 -0.888157789226385
-3.3120830244625648 2.0846140007599434E-22 -0.8898221517129543
-3.306152705707932 2.3372667233676504E-22 -0.8914928973291808
-3.3002223869532985 2.6205232536536807E-22 -0.8931700635729415
-3.294292068198666 2.9380884436571293E-22 -0.8948536882412879
-3.2883617494440327 3.2941153749068856E-22 -0.8965438094334794
-3.2824314306893996 3.693259552742997E-22 -0.8982404655540506
-3.2765011119347665 4.140739648808036E-22 -0.899943695315918
-3.2705707931801333 4.642405582363844E-22 -0.9016535377435253
-3.2646404744255006 5.204814826487924E-22 -0.9033700321760267
-3.258710155670867 5.835317932104621E-22 -0.9050932182705116
-3.2527798369162344 6.542154382594881E-22 -0.9068231360052661
-3.2468495181616013 7.334560025957243E-22 -0.9085598256830796
-3.240919199406968 8.222887481901124E-22 -0.9103033279345896
-3.234988880652335 9.218741089790242E-22 -0.9120536837216693
-3.229058561897702 1.0335128152202244E-21 -0.9138109343408576
-3.2231282431430692 1.158662844047626E-21 -0.9155751214268335
-3.2171979243884357 1.298958416572351E-21 -0.9173462869559331
-3.211267605633803 1.4562312884446836E-21 -0.9191244732497104
-3.20533728687917 1.6325346105592756E-21 -0.9209097229785459
-3.1994069681245367 1.8301696699396726E-21 -0.922702079165298
-3.1934766493699036 2.0517158582095453E-21 -0.9245015851890037
-3.1875463306152705 2.3000642569304437E-21 -0.9263082847886239
-3.181616011860638 2.578455276001128E-21 -0.9281222220668388
-3.1756856931060042 2.8905208338784114E-21 -0.929943441493891
-3.1697553743513716 3.2403316272736968E-21 -0.9317719879114772
-3.1638250555967384 3.632450103964547E-21 -0.9336079065366927
-3.1578947368421053 4.07198982628969E-21 -0.9354512429660231
-3.151964418087472 4.5646819957243796E-21 -0.9373020431793911
-3.146034099332839 5.116950001731435E-21 -0.9391603535442533
-3.1401037805782064 5.7359929620505315E-21 -0.941026220819752
-3.134173461823573 6.4298793380675756E-21 -0.9428996921609201
-3.12824314306894 7.207651839401665E-21 -0.9447808151229411
-3.122312824314307 8.079444978044426E-21 -0.9466696376654654
-3.116382505559674 9.056616796173079E-21 -0.9485662081569821
-3.1104521868050408 1.0151896475248708E-20 -0.9504705753792501
-3.1045218680504076 1.1379549739573141E-20 -0.952382788531785
-3.098591549295775 1.2755564197764402E-20 -0.9543028972364087
-3.0926612305411414 1.4297857023592713E-20 -0.9562309515418561
-3.0867309117865087 1.6026507666624767E-20 -0.9581670019284443
-3.0808005930318756 1.7964018606880458E-20 -0.9601110993128048
-3.0748702742772425 2.0135607530388532E-20 -0.9620632950526772
-3.0689399555226093 2.25695347088113E-20 -0.9640236409517676
-3.063009636767976 2.5297469821430845E-20 -0.965992189264673
-3.057079318013343 2.835490296761516E-20 -0.9679689927018703
-3.05114899925871 3.178160518898187E-20 -0.9699541044347739
-3.0452186805040773 3.5622144460206315E-20 -0.9719475781008604
-3.039288361749444 3.992646382402046E-20 -0.9739494678088643
-3.033358042994811 4.4750529148646E-20 -0.9759598281440414
-3.027427724240178 5.0157054885035806E-20 -0.9779787141735068
-3.021497405485545 5.621631720843447E-20 -0.9800061814516441
-3.0155670867309117 6.300706505687538E-20 -0.9820422860255882
-3.0096367679762785 7.061754084282188E-20 -0.9840870844407839
-3.003706449221646 7.914662402949204E-20 -0.986140633746621
-2.9977761304670127 8.870511234868262E-20 -0.9882029915021466
-2.9918458117123796 9.941715721251625E-20 -0.990274215781855
-2.9859154929577465 1.1142187186030447E-19 -0.9923543651815606
-2.9799851742031134 1.2487513300921314E-19 -0.9944434988243491
-2.9740548554484807 1.3995159927226396E-19 -0.9965416763666135
-2.968124536693847 1.568469724014631E-19 -0.9986489580041735
-2.9621942179392144 1.757805305434111E-19 -1.0007654044784795
-2.9562638991845813 1.9699796619981513E-19 -1.0028910770829058
-2.950333580429948 2.207745655109032E-19 -1.0050260376691296
-2.944403261675315 2.4741876987622914E-19 -1.0071703486536001
-2.938472942920682 2.7727616585119165E-19 -1.0093240730241022
-2.9325426241660493 3.107339547719555E-19 -1.0114872743464072
-2.9266123054114157 3.482259597371132E-19 -1.0136600167710237
-2.920681986656783 3.902382344905768E-19 -1.0158423650400394
-2.9147516679021495 4.37315346495545E-19 -1.0180343844940651
-2.9088213491475168 4.90067415163258E-19 -1.0202361410792733
-2.9028910303928837 5.491779959138273E-19 -1.0224477013545417
-2.8969607116382505 6.1541291162420305E-19 -1.0246691324986958
-2.891030392883618 6.896301451997043E-19 -1.0269005023178588
-2.8851000741289843 7.727909206465339E-19 -1.0291418792529052
-2.8791697553743516 8.659721152980602E-19 -1.0313933323870228
-2.873239436619718 9.70380162952947E-19 -1.0336549314533865
-2.8673091178650854 1.0873666268374706E-18 -1.0359267468429396
-2.8613787991104522 1.2184456427527175E-18 -1.0382088496122932
-2.855448480355819 1.3653134567842717E-18 -1.0405013114917372
-2.8495181616011864 1.5298703088447494E-18 -1.0428042048933706
-2.843587842846553 1.7142449434320913E-18 -1.0451176029193519
-2.83765752409192 1.9208220627039174E-18 -1.0474415793702685
-2.8317272053372866 2.1522730747216065E-18 -1.0497762087536333
-2.825796886582654 2.411590531989574E-18 -1.052121566292503
-2.819866567828021 2.702126702745668E-18 -1.0544777279342288
-2.8139362490733877 3.0276367704524482E-18 -1.056844770359333
-2.808005930318755 3.3923272162730164E-18 -1.0592227709905222
-2.8020756115641214 3.800910005746972E-18 -1.0616118080018326
-2.7961452928094888 4.25866327525978E-18 -1.0640119603279123
-2.790214974054855 4.771499297171878E-18 -1.0664233076734468
-2.7842846553002225 5.346040595704694E-18 -1.0688459305227216
-2.7783543365455894 5.989705190058729E-18 -1.0712799101493344
-2.7724240177909563 6.7108020580952834E-18 -1.0737253286260513
-2.766493699036323 7.518638044738163E-18 -1.0761822688348133
-2.76056338028169 8.423637585712604E-18 -1.078650814476898
-2.7546330615270573 9.437476781202121E-18 -1.0811310500832323
-2.7487027427724238 1.0573233537559205E-17 -1.0836230610248687
-2.742772424017791 1.1845555700690712E-17 -1.086126933523616
-2.736842105263158 1.3270849334770449E-17 -1.0886427546628408
-2.730911786508525 1.4867489557437958E-17 -1.091170612398431
-2.7249814677538917 1.6656056630902136E-17 -1.0937105955699313
-2.7190511489992586 1.8659600331048177E-17 -1.0962627939118523
-2.713120830244626 2.0903935977852314E-17 -1.098827298065153
-2.7071905114899923 2.341797591473378E-17 -1.1014041995889081
-2.7012601927353597 2.6234100677059117E-17 -1.103993590972151
-2.6953298739807265 2.938857459661238E-17 -1.1065955656459106
-2.6893995552260934 3.292201115589467E-17 -1.1092102179954313
-2.6834692364714603 3.687989404082075E-17 -1.1118376433725903
-2.677538917716827 4.1313160550801547E-17 -1.11447793810851
-2.6716085989621945 4.627885482035902E-17 -1.117131199526371
-2.665678280207561 5.184085919640767E-17 -1.1197975259544308
-2.6597479614529282 5.807071311145064E-17 -1.1224770167392464
-2.653817642698295 6.504852990781271E-17 -1.1251697722591154
-2.647887323943662 7.286402331581153E-17 -1.127875893937727
-2.641957005189029 8.16176566852696E-17 -1.1305954842580361
-2.6360266864343957 9.142192963269887E-17 -1.1333286467763628
-2.630096367679763 1.0240281851565055E-16 -1.1360754861367162
-2.6241660489251295 1.1470138910327643E-16 -1.138836108085357
-2.618235730170497 1.2847560200288714E-16 -1.1416106194855917
-2.6123054114158637 1.4390233385395462E-16 -1.1443991283328132
-2.6063750926612306 1.611796400446245E-16 -1.147201743769786
-2.6004447739065975 1.8052928777609484E-16 -1.1500185761021828
-2.5945144551519643 2.021995917360242E-16 -1.1528497368143784
-2.5885841363973316 2.264685884869005E-16 -1.1556953385855042
-2.582653817642698 2.536475899776453E-16 -1.15855549530577
-2.5767234988880654 2.840851614010194E-16 -1.1614303220930549
-2.5707931801334323 3.1817157400646525E-16 -1.1643199353097797
-2.564862861378799 3.5634378950591215E-16 -1.167224452580057
-2.558932542624166 3.990910394549011E-16 -1.1701439928071324
-2.553002223869533 4.469610705382914E-16 -1.1730786761911185
-2.5470719051149002 5.005671351340394E-16 -1.176028624247028
-2.5411415863602667 5.605958159766006E-16 -1.1789939598231136
-2.535211267605634 6.278157843125743E-16 -1.1819748071195175
-2.529280948851001 7.0308760276853E-16 -1.1849712917072417
-2.5233506300963677 7.873746973836202E-16 -1.1879835405474397
-2.5174203113417346 8.817556380642833E-16 -1.1910116820110408
-2.5114899925871015 9.874378832815654E-16 -1.1940558458987116
-2.505559673832469 1.1057731633618686E-15 -1.1971161634611616
-2.4996293550778352 1.238274697452505E-15 -1.2001927674198014
-2.4936990363232026 1.3866364624351503E-15 -1.2032857919877564
-2.4877687175685694 1.5527547580048473E-15 -1.206395372891251
-2.4818383988139363 1.73875234115585E-15 -1.2095216473913626
-2.475908080059303 1.9470054357831185E-15 -1.2126647543061577
-2.46997776130467 2.1801739594276816E-15 -1.2158248340332192
-2.4640474425500374 2.4412353498215477E-15 -1.2190020285725658
-2.458117123795404 2.73352241933353E-15 -1.2221964815499846
-2.452186805040771 3.0607657162517292E-15 -1.2254083382407677
-2.446256486286138 3.4271409286993077E-15 -1.2286377455938817
-2.440326167531505 3.837321930580852E-15 -1.2318848522565597
-2.4343958487768718 4.296540140094554E-15 -1.2351498085993398
-2.4284655300222386 4.810650940912277E-15 -1.2384327667415498
-2.422535211267606 5.3862080051223215E-15 -1.2417338805772538
-2.4166048925129724 6.030546456562964E-15 -1.245053305801667
-2.4106745737583397 6.7518759244949495E-15 -1.2483911999380468
-2.4047442550037066 7.559384662061186E-15 -1.2517477223650797
-2.3988139362490735 8.463356043219808E-15 -1.255123034344762
-2.3928836174944403 9.475298907553654E-15 -1.2585172990507933
-2.386953298739807 1.0608093396502171E-14 -1.2619306815974933
-2.3810229799851745 1.1876154119306686E-14 -1.2653633490692486
-2.375092661230541 1.3295612704740063E-14 -1.268815470550508
-2.3691623424759083 1.488452203822622E-14 -1.2722872171563284
-2.363232023721275 1.6663084756283952E-14 -1.2757787620634977
-2.357301704966642 1.8653908874750962E-14 -1.279290280542231
-2.351371386212009 2.0882293767755915E-14 -1.282821949988465
-2.345441067457376 2.3376550095154785E-14 -1.2863739499567586
-2.339510748702743 2.6168357701876816E-14 -1.2899464621938144
-2.3335804299481095 2.929316598863987E-14 -1.2935396706726356
-2.327650111193477 3.279064178572132E-14 -1.2971537616273268
-2.3217197924388437 3.6705170356534516E-14 -1.3007889235885663
-2.3157894736842106 4.108641582306568E-14 -1.304445347419748
-2.3098591549295775 4.598994804904639E-14 -1.308123226353822
-2.3039288361749444 5.147794384831979E-14 -1.3118227560308435
-2.2979985174203117 5.761997131553754E-14 -1.3155441345362429
-2.292068198665678 6.44938671156471E-14 -1.319287562439846
-2.2861378799110454 7.218671773049943E-14 -1.3230532428356414
-2.2802075611564123 8.079595695974427E-14 -1.3268413813823363
-2.274277242401779 9.043059342509642E-14 -1.3306521863446967
-2.268346923647146 1.0121258345005321E-13 -1.3344858686357042
-2.262416604892513 1.1327836650133876E-13 -1.3383426418595437
-2.2564862861378803 1.267805824062149E-13 -1.342222722355441
-2.2505559673832467 1.4188999182644686E-13 -1.3461263292423722
-2.244625648628614 1.587976240031943E-13 -1.3500536844646591
-2.238695329873981 1.7771717861875903E-13 -1.3540050128384853
-2.2327650111193478 1.9888771178597465E-13 -1.3579805420993347
-2.2268346923647147 2.2257663971318612E-13 -1.3619805029503946
-2.2209043736100815 2.4908309754593673E-13 -1.3660051291119304
-2.214974054855449 2.7874169530446816E-13 -1.3700546573716665
-2.2090437361008153 3.119267177734768E-13 -1.3741293276361894
-2.2031134173461826 3.490568207181554E-13 -1.3782293829833994
-2.1971830985915495 3.9060028196642346E-13 -1.3823550697160436
-2.1912527798369164 4.3708087278739283E-13 -1.3865066374163444
-2.1853224610822832 4.89084422695401E-13 -1.390684339001758
-2.17939214232765 5.472661594121597E-13 -1.394888430781888
-2.1734618235730174 6.123589153325763E-13 -1.3991191725165844
-2.167531504818384 6.851823025808486E-13 -1.4033768274752547
-2.161601186063751 7.666529707445178E-13 -1.407661662497414
-2.1556708673091176 8.57796074782777E-13 -1.4119739480545168
-2.149740548554485 9.59758095586089E-13 -1.4163139583130828
-2.143810229799852 1.0738211724009527E-12 -1.4206819711991725
-2.1378799110452187 1.2014191250317673E-12 -1.4250782684642234
-2.131949592290586 1.3441553646204155E-12 -1.4295031357522967
-2.1260192735359524 1.5038229151393754E-12 -1.433956862668766
-2.1200889547813198 1.6824267938016623E-12 -1.4384397428504765
-2.114158636026686 1.8822090277097348E-12 -1.44295207403743
-2.1082283172720535 2.1056766165919E-12 -1.44749415814601
-2.1022979985174204 2.3556327878063954E-12 -1.4520663013438122
