# 0.03811  hbar^2/(2m)
# -4.0 xmin
# 4.0 xmax
# 1350 ngrid
# 0 nnode 
# 0.1 vscale
# -9.033518431380617  Energy
#offset=0
#d=10
#w=0.5
#s=0.5
#offset-(d*pulse(s/2,abs(x))*pulse(abs(x),w+s/2))
-4.0 0.0 0.0
-3.994069681245367 1.0126550785876233E-23 0.0
-3.9881393624907338 2.0337578363530838E-23 0.0
-3.9822090437361006 3.071826423935826E-23 0.0
-3.976278724981468 4.135520522779131E-23 0.0
-3.970348406226835 5.2337135851377584E-23 0.0
-3.9644180874722017 6.375566857385026E-23 0.0
-3.9584877687175686 7.570605804129834E-23 0.0
-3.9525574499629355 8.828799570681956E-23 0.0
-3.9466271312083023 1.016064414675016E-22 0.0
-3.940696812453669 1.1577249925133796E-22 0.0
-3.9347664936990365 1.3090434385832024E-22 0.0
-3.9288361749444034 1.4712820678751618E-22 0.0
-3.9229058561897703 1.6457942927401066E-22 0.0
-3.916975537435137 1.8340359132025883E-22 0.0
-3.911045218680504 2.0375772614035378E-22 0.0
-3.905114899925871 2.2581163014823587E-22 0.0
-3.899184581171238 2.4974927941790773E-22 0.0
-3.893254262416605 2.7577036443192122E-22 0.0
-3.887323943661972 3.0409195592117543E-22 0.0
-3.881393624907339 3.349503156926428E-22 0.0
-3.8754633061527057 3.686028675511466E-22 0.0
-3.8695329873980726 4.0533034475683367E-22 0.0
-3.8636026686434395 4.454391319326674E-22 0.0
-3.8576723498888064 4.892638209583885E-22 0.0
-3.8517420311341732 5.371700021724903E-22 0.0
-3.8458117123795406 5.895573141667195E-22 0.0
-3.8398813936249074 6.468627776148218E-22 0.0
-3.8339510748702743 7.095644409466954E-22 0.0
-3.828020756115641 7.781853682805622E-22 0.0
-3.822090437361008 8.53298002880925E-22 0.0
-3.816160118606375 9.355289425427517E-22 0.0
-3.810229799851742 1.025564166738662E-21 0.0
-3.804299481097109 1.1241547591345502E-21 0.0
-3.798369162342476 1.2321231732114914E-21 0.0
-3.792438843587843 1.3503700932624379E-21 0.0
-3.7865085248332098 1.4798819479988822E-21 0.0
-3.7805782060785766 1.6217391394468196E-21 0.0
-3.7746478873239435 1.7771250557783538E-21 0.0
-3.7687175685693104 1.947335943264973E-21 0.0
-3.7627872498146777 2.1337917197054088E-21 0.0
-3.7568569310600446 2.338047819534868E-21 0.0
-3.7509266123054115 2.5618081694288417E-21 0.0
-3.7449962935507783 2.8069394026453793E-21 0.0
-3.739065974796145 3.075486430683437E-21 0.0
-3.733135656041512 3.369689502157767E-21 0.0
-3.727205337286879 3.692002891197341E-21 0.0
-3.7212750185322463 4.045115371267973E-21 0.0
-3.715344699777613 4.431972645214E-21 0.0
-3.70941438102298 4.8558019186328746E-21 0.0
-3.703484062268347 5.320138821576455E-21 0.0
-3.697553743513714 5.8288569031627345E-21 0.0
-3.6916234247590807 6.3861999451453205E-21 0.0
-3.6856931060044476 6.996817364003945E-21 0.0
-3.679762787249815 7.665802996884136E-21 0.0
-3.6738324684951817 8.39873759494258E-21 0.0
-3.6679021497405486 9.201735378582307E-21 0.0
-3.6619718309859155 1.0081495042946552E-20 0.0
-3.6560415122312824 1.1045355639164665E-20 0.0
-3.6501111934766493 1.2101357797517555E-20 0.0
-3.644180874722016 1.3258310803252982E-20 0.0
-3.6382505559673834 1.4525866084604456E-20 0.0
-3.6323202372127503 1.591459772605883E-20 0.0
-3.626389918458117 1.7436090678523065E-20 0.0
-3.620459599703484 1.9103037402248964E-20 0.0
-3.614529280948851 2.0929343748721728E-20 0.0
-3.608598962194218 2.2930244964790636E-20 0.0
-3.6026686434395847 2.5122432786760877E-20 0.0
-3.596738324684952 2.7524194684679405E-20 0.0
-3.590808005930319 3.0155566418405794E-20 0.0
-3.584877687175686 3.303849917810754E-20 0.0
-3.5789473684210527 3.6197042703483974E-20 0.0
-3.5730170496664195 3.965754590931942E-20 0.0
-3.5670867309117864 4.3448876691005816E-20 0.0
-3.5611564121571533 4.7602662743676435E-20 0.0
-3.5552260934025206 5.2153555403890306E-20 0.0
-3.5492957746478875 5.713951871486328E-20 0.0
-3.5433654558932544 6.260214612665964E-20 0.0
-3.5374351371386212 6.858700747329162E-20 0.0
-3.531504818383988 7.514402912124792E-20 0.0
-3.525574499629355 8.232791046069143E-20 0.0
-3.519644180874722 9.019858021374133E-20 0.0
-3.513713862120089 9.882169636641316E-20 0.0
-3.507783543365456 1.0826919389470345E-19 0.0
-3.501853224610823 1.1861988485400996E-19 0.0
-3.49592290585619 1.2996011583789847E-19 0.0
-3.4899925871015567 1.4238448829080953E-19 0.0
-3.4840622683469236 1.5599664768363198E-19 0.0
-3.4781319495922904 1.7091014813553194E-19 0.0
-3.4722016308376578 1.872493996948073E-19 0.0
-3.4662713120830246 2.0515070618108758E-19 0.0
-3.4603409933283915 2.247634022466723E-19 0.0
-3.4544106745737584 2.4625109914249757E-19 0.0
-3.4484803558191253 2.6979304958104636E-19 0.0
-3.442550037064492 2.955856430820383E-19 0.0
-3.436619718309859 3.2384404427523513E-19 0.0
-3.4306893995552263 3.5480398782726374E-19 0.0
-3.424759080800593 3.887237449659308E-19 0.0
-3.41882876204596 4.258862780069907E-19 0.0
-3.412898443291327 4.666016008566635E-19 0.0
-3.406968124536694 5.112093651814732E-19 0.0
-3.4010378057820607 5.600816938195159E-19 0.0
-3.3951074870274276 6.136262850697858E-19 0.0
-3.389177168272795 6.72289813755878E-19 0.0
-3.3832468495181613 7.365616574361127E-19 0.0
-3.3773165307635287 8.069779788445337E-19 0.0
-3.3713862120088955 8.841261986189475E-19 0.0
-3.3654558932542624 9.686498956279894E-19 0.0
-3.3595255744996293 1.0612541757762815E-18 0.0
-3.353595255744996 1.1627115540748361E-18 0.0
-3.3476649369903635 1.273868399045585E-18 0.0
-3.34173461823573 1.3956519932199535E-18 0.0
-3.3358042994810972 1.5290782686309334E-18 0.0
-3.329873980726464 1.6752602818289723E-18 0.0
-3.323943661971831 1.8354174991211856E-18 0.0
-3.318013343217198 2.0108859694923735E-18 0.0
-3.3120830244625648 2.2031294700714567E-18 0.0
-3.306152705707932 2.4137517171200293E-18 0.0
-3.3002223869532985 2.644509744408428E-18 0.0
-3.294292068198666 2.8973285605831916E-18 0.0
-3.2883617494440327 3.1743172077992698E-18 0.0
-3.2824314306893996 3.477786355579841E-18 0.0
-3.2765011119347665 3.8102675766736424E-18 0.0
-3.2705707931801333 4.174534465711111E-18 0.0
-3.2646404744255006 4.573625776833479E-18 0.0
-3.258710155670867 5.010870773311441E-18 0.0
-3.2527798369162344 5.4899170006226845E-18 0.0
-3.2468495181616013 6.014760714674329E-18 0.0
-3.240919199406968 6.589780219005813E-18 0.0
-3.234988880652335 7.219772389074838E-18 0.0
-3.229058561897702 7.909992688315917E-18 0.0
-3.2231282431430692 8.666199009789889E-18 0.0
-3.2171979243884357 9.494699709156183E-18 0.0
-3.211267605633803 1.0402406229664189E-17 0.0
-3.20533728687917 1.139689075816708E-17 0.0
-3.1994069681245367 1.2486449393130914E-17 0.0
-3.1934766493699036 1.3680171351593399E-17 0.0
-3.1875463306152705 1.4988014792404327E-17 0.0
-3.181616011860638 1.6420889888273464E-17 0.0
-3.1756856931060042 1.7990749839621926E-17 0.0
-3.1697553743513716 1.9710690589484548E-17 0.0
-3.1638250555967384 2.1595060071295885E-17 0.0
-3.1578947368421053 2.365957790091669E-17 0.0
-3.151964418087472 2.5921466511384967E-17 0.0
-3.146034099332839 2.8399594824331846E-17 0.0
-3.1401037805782064 3.1114635656585047E-17 0.0
-3.134173461823573 3.408923817506286E-17 0.0
-3.12824314306894 3.734821683859636E-17 0.0
-3.122312824314307 4.0918758402852985E-17 0.0
-3.116382505559674 4.4830648715219233E-17 0.0
-3.1104521868050408 4.911652119159013E-17 0.0
-3.1045218680504076 5.381212904788596E-17 0.0
-3.098591549295775 5.895664355728124E-17 0.0
-3.0926612305411414 6.459298082124035E-17 0.0
-3.0867309117865087 7.076815978031948E-17 0.0
-3.0808005930318756 7.753369445129992E-17 0.0
-3.0748702742772425 8.494602366273788E-17 0.0
-3.0689399555226093 9.306698187383151E-17 0.0
-3.063009636767976 1.0196431500422765E-16 0.0
-3.057079318013343 1.1171224557787664E-16 0.0
-3.05114899925871 1.2239209189542718E-16 0.0
-3.0452186805040773 1.340929464003647E-16 0.0
-3.039288361749444 1.4691241889789758E-16 0.0
-3.033358042994811 1.6095745082660464E-16 0.0
-3.027427724240178 1.7634520737558625E-16 0.0
-3.021497405485545 1.9320405488925835E-16 0.0
-3.0155670867309117 2.1167463171340613E-16 0.0
-3.0096367679762785 2.319110214156128E-16 0.0
-3.003706449221646 2.540820381671955E-16 0.0
-2.9977761304670127 2.783726350094455E-16 0.0
-2.9918458117123796 3.049854467520829E-16 0.0
-2.9859154929577465 3.3414248037495253E-16 0.0
-2.9799851742031134 3.660869670344785E-16 0.0
-2.9740548554484807 4.0108539112451443E-16 0.0
-2.968124536693847 4.3942971331823944E-16 0.0
-2.9621942179392144 4.814398061359552E-16 0.0
-2.9562638991845813 5.274661223565587E-16 0.0
-2.950333580429948 5.778926185328693E-16 0.0
-2.944403261675315 6.331399579990934E-16 0.0
-2.938472942920682 6.936690200902667E-16 0.0
-2.9325426241660493 7.599847448479625E-16 0.0
-2.9266123054114157 8.326403452852238E-16 0.0
-2.920681986656783 9.122419223498909E-16 0.0
-2.9147516679021495 9.994535210848524E-16 0.0
-2.9088213491475168 1.0950026701642613E-15 0.0
-2.9028910303928837 1.1996864510171307E-15 0.0
-2.8969607116382505 1.3143781471676016E-15 0.0
-2.891030392883618 1.4400345292614036E-15 0.0
-2.8851000741289843 1.5777038365509939E-15 0.0
-2.8791697553743516 1.7285345214217986E-15 0.0
-2.873239436619718 1.893784829907343E-15 0.0
-2.8673091178650854 2.074833298114977E-15 0.0
-2.8613787991104522 2.2731902521245244E-15 0.0
-2.855448480355819 2.4905104072932654E-15 0.0
-2.8495181616011864 2.728606672072025E-15 0.0
-2.843587842846553 2.989465271485318E-15 0.0
-2.83765752409192 3.2752623164372607E-15 0.0
-2.8317272053372866 3.588381957066216E-15 0.0
-2.825796886582654 3.9314362715854295E-15 0.0
-2.819866567828021 4.30728705652455E-15 0.0
-2.8139362490733877 4.719069700148583E-15 0.0
-2.808005930318755 5.170219338208974E-15 0.0
-2.8020756115641214 5.6644995102209226E-15 0.0
-2.7961452928094888 6.206033555320738E-15 0.0
-2.790214974054855 6.799339009610899E-15 0.0
-2.7842846553002225 7.449365291939231E-15 0.0
-2.7783543365455894 8.161534992491062E-15 0.0
-2.7724240177909563 8.941789108628325E-15 0.0
-2.766493699036323 9.796636605337901E-15 0.0
-2.76056338028169 1.073320871372787E-14 0.0
-2.7546330615270573 1.1759318420535654E-14 0.0
-2.7487027427724238 1.2883525644916025E-14 0.0
-2.742772424017791 1.411520864622084E-14 0.0
-2.736842105263158 1.5464642258462026E-14 0.0
-2.730911786508525 1.6943083604098197E-14 0.0
-2.7249814677538917 1.856286600217873E-14 0.0
-2.7190511489992586 2.0337501854237198E-14 0.0
-2.713120830244626 2.22817953662196E-14 0.0
-2.7071905114899923 2.4411966046785974E-14 0.0
-2.7012601927353597 2.6745784012221672E-14 0.0
-2.6953298739807265 2.930271822668671E-14 0.0
-2.6893995552260934 3.210409891443944E-14 0.0
-2.6834692364714603 3.517329549889512E-14 0.0
-2.677538917716827 3.853591155290637E-14 0.0
-2.6716085989621945 4.2219998386562066E-14 0.0
-2.665678280207561 4.625628905427736E-14 0.0
-2.6597479614529282 5.067845473328758E-14 0.0
-2.653817642698295 5.552338561228323E-14 0.0
-2.647887323943662 6.083149863339001E-14 0.0
-2.641957005189029 6.664707465471071E-14 0.0
-2.6360266864343957 7.301862784607597E-14 0.0
-2.630096367679763 7.999931039954333E-14 0.0
-2.6241660489251295 8.764735593078406E-14 0.0
-2.618235730170497 9.602656527026014E-14 0.0
-2.6123054114158637 1.052068386967146E-13 0.0
-2.6063750926612306 1.1526475905292513E-13 0.0
-2.6004447739065975 1.2628423060813618E-13 0.0
-2.5945144551519643 1.3835717899662937E-13 0.0
-2.5885841363973316 1.5158431807139677E-13 0.0
-2.582653817642698 1.6607599007009365E-13 0.0
-2.5767234988880654 1.8195308610202653E-13 0.0
-2.5707931801334323 1.9934805463498036E-13 0.0
-2.564862861378799 2.1840600639479075E-13 0.0
-2.558932542624166 2.392859248948551E-13 0.0
-2.553002223869533 2.621619926939514E-13 0.0
-2.5470719051149002 2.872250444461523E-13 0.0
-2.5411415863602667 3.146841588643356E-13 0.0
-2.535211267605634 3.447684028776237E-13 0.0
-2.529280948851001 3.7772874253270495E-13 0.0
-2.5233506300963677 4.1384013657998337E-13 0.0
-2.5174203113417346 4.534038302094808E-13 0.0
-2.5114899925871015 4.967498680710878E-13 0.0
-2.505559673832469 5.442398475430508E-13 0.0
-2.4996293550778352 5.96269935216763E-13 0.0
-2.4936990363232026 6.532741717617042E-13 0.0
-2.4877687175685694 7.15728092740073E-13 0.0
-2.4818383988139363 7.84152695576342E-13 0.0
-2.475908080059303 8.5911878577463E-13 0.0
-2.46997776130467 9.4125173864051E-13 0.0
-2.4640474425500374 1.031236716230057E-12 0.0
-2.458117123795404 1.1298243830464905E-12 0.0
-2.452186805040771 1.2378371681653837E-12 0.0
-2.446256486286138 1.3561761260277628E-12 0.0
-2.440326167531505 1.4858284531345877E-12 0.0
-2.4343958487768718 1.6278757233476967E-12 0.0
-2.4284655300222386 1.7835029104969964E-12 0.0
-2.422535211267606 1.9540082735614674E-12 0.0
-2.4166048925129724 2.1408141868872466E-12 0.0
-2.4106745737583397 2.3454790057896512E-12 0.0
-2.4047442550037066 2.5697100665232817E-12 0.0
-2.3988139362490735 2.815377929067381E-12 0.0
-2.3928836174944403 3.084531981541319E-12 0.0
-2.386953298739807 3.3794175364239385E-12 0.0
-2.3810229799851745 3.702494561195283E-12 0.0
-2.375092661230541 4.056458199653775E-12 0.0
-2.3691623424759083 4.444261255099912E-12 0.0
-2.363232023721275 4.869138822943637E-12 0.0
-2.357301704966642 5.334635278223298E-12 0.0
-2.351371386212009 5.8446338431690235E-12 0.0
-2.345441067457376 6.403388981466344E-12 0.0
-2.339510748702743 7.015561889456552E-12 0.0
-2.3335804299481095 7.686259380345265E-12 0.0
-2.327650111193477 8.421076485795491E-12 0.0
-2.3217197924388437 9.226143130292368E-12 0.0
-2.3157894736842106 1.0108175267642174E-11 0.0
-2.3098591549295775 1.1074530906191906E-11 0.0
-2.3039288361749444 1.2133271490137888E-11 0.0
-2.2979985174203117 1.3293229148973026E-11 0.0
-2.292068198665678 1.456408037607489E-11 0.0
-2.2861378799110454 1.595642675106947E-11 0.0
-2.2802075611564123 1.7481883379365403E-11 0.0
-2.274277242401779 1.915317578663084E-11 0.0
-2.268346923647146 2.0984246076517325E-11 0.0
-2.262416604892513 2.2990369237209983E-11 0.0
-2.2564862861378803 2.5188280567045927E-11 0.0
-2.2505559673832467 2.759631528219935E-11 0.0
-2.244625648628614 3.0234561471055756E-11 0.0
-2.238695329873981 3.3125027671237555E-11 0.0
-2.2327650111193478 3.6291826467226687E-11 0.0
-2.2268346923647147 3.976137564017583E-11 0.0
-2.2209043736100815 4.3562618547921796E-11 0.0
-2.214974054855449 4.772726557363516E-11 0.0
-2.2090437361008153 5.229005865729735E-11 0.0
-2.2031134173461826 5.728906111675533E-11 0.0
-2.1971830985915495 6.276597517607301E-11 0.0
-2.1912527798369164 6.876648985003541E-11 0.0
-2.1853224610822832 7.534066208689606E-11 0.0
-2.17939214232765 8.254333434890214E-11 0.0
-2.1734618235730174 9.043459211409953E-11 0.0
-2.167531504818384 9.908026511594788E-11 0.0
-2.161601186063751 1.0855247650214127E-10 0.0
-2.1556708673091176 1.1893024449377707E-10 0.0
-2.149740548554485 1.303001415639797E-10 0.0
-2.143810229799852 1.427570166349193E-10 0.0
-2.1378799110452187 1.564047863178713E-10 0.0
-2.131949592290586 1.713573017969283E-10 0.0
-2.1260192735359524 1.8773929858800249E-10 0.0
-2.1200889547813198 2.0568743709611193E-10 0.0
-2.114158636026686 2.2535144265139307E-10 0.0
-2.1082283172720535 2.4689535453414453E-10 0.0
-2.1022979985174204 2.70498894408405E-10 0.0
-2.0963676797627873 2.9635896557968816E-10 0.0
-2.0904373610081546 3.2469129558384524E-10 0.0
-2.084507042253521 3.557322358097121E-10 0.0
-2.0785767234988883 3.897407331681877E-10 0.0
-2.0726464047442548 4.270004902556245E-10 0.0
-2.066716085989622 4.678223320318477E-10 0.0
-2.060785767234989 5.12546798755891E-10 0.0
-2.054855448480356 5.615469868100008E-10 0.0
-2.048925129725723 6.152316611103738E-10 0.0
-2.0429948109710896 6.740486650686962E-10 0.0
-2.037064492216457 7.384886565507584E-10 0.0
-2.0311341734618233 8.09089200997917E-10 0.0
-2.0252038547071907 8.864392558566722E-10 0.0
-2.0192735359525575 9.711840837259595E-10 0.0
-2.0133432171979244 1.0640306352081688E-9 0.0
-2.0074128984432913 1.16575344636822E-9 0.0
-2.001482579688658 1.2772010999979422E-9 0.0
-1.9955522609340255 1.3993033045863303E-9 0.0
-1.9896219421793924 1.5330786500492202E-9 0.0
-1.9836916234247592 1.6796431049175267E-9 0.0
-1.9777613046701261 1.8402193258685151E-9 0.0
-1.971830985915493 2.016146857261234E-9 0.0
-1.9659006671608599 2.208893305761742E-9 0.0
-1.9599703484062267 2.4200665832780816E-9 0.0
-1.954040029651594 2.6514283203368856E-9 0.0
-1.948109710896961 2.9049085617974828E-9 0.0
-1.9421793921423278 3.1826218674967382E-9 0.0
-1.9362490733876947 3.4868849521379817E-9 0.0
-1.9303187546330616 3.820236011577884E-9 0.0
-1.9243884358784284 4.185455896733291E-9 0.0
-1.9184581171237953 4.585591311743054E-9 0.0
-1.9125277983691626 5.02398022990644E-9 0.0
-1.9065974796145295 5.504279739420674E-9 0.0
-1.9006671608598964 6.030496551209785E-9 0.0
-1.8947368421052633 6.607020423344387E-9 0.0
-1.8888065233506302 7.238660780882564E-9 0.0
-1.882876204595997 7.930686836618569E-9 0.0
-1.876945885841364 8.688871547430984E-9 0.0
-1.8710155670867308 9.519539772919007E-9 0.0
-1.865085248332098 1.0429621038071477E-8 0.0
-1.859154929577465 1.1426707340120552E-8 0.0
-1.8532246108228319 1.2519116481811146E-8 0.0
-1.8472942920681987 1.3715961459419154E-8 0.0
-1.8413639733135656 1.502722648436091E-8 0.0
-1.8354336545589325 1.6463850272574395E-8 0.0
-1.8295033358042994 1.803781729648136E-8 0.0
-1.8235730170496667 1.976225776076414E-8 0.0
-1.8176426982950336 2.1651557135966032E-8 0.0
-1.8117123795404004 2.3721476163656464E-8 0.0
-1.8057820607857673 2.5989282334257173E-8 0.0
-1.7998517420311342 2.847389393433171E-8 0.0
-1.793921423276501 3.119603786499652E-8 0.0
-1.787991104521868 3.4178422547992054E-8 0.0
-1.7820607857672353 3.7445927361815043E-8 0.0
-1.7761304670126021 4.102581018820912E-8 0.0
-1.770200148257969 4.4947934800388946E-8 0.0
-1.7642698295033359 4.924501998989548E-8 0.0
-1.7583395107487028 5.395291251032563E-8 0.0
-1.7524091919940696 5.911088611486276E-8 0.0
-1.7464788732394365 6.476196918221174E-8 0.0
-1.7405485544848038 7.095330366402985E-8 0.0
-1.7346182357301707 7.773653834823217E-8 0.0
-1.7286879169755376 8.51682597188168E-8 0.0
-1.7227575982209045 9.33104640064898E-8 0.0
-1.7168272794662713 1.0223107436798744E-7 0.0
-1.7108969607116382 1.1200450750846222E-7 0.0
-1.704966641957005 1.227122944737584E-7 0.0
-1.6990363232023724 1.3444376079129406E-7 0.0
-1.6931060044477393 1.4729677163335905E-7 0.0
-1.6871756856931062 1.613785482190623E-7 0.0
-1.681245366938473 1.7680656226544287E-7 0.0
-1.67531504818384 1.9370951594935328E-7 0.0
-1.6693847294292068 2.1222841555506425E-7 0.0
-1.6634544106745737 2.3251774776407631E-7 0.0
-1.657524091919941 2.547467683998761E-7 0.0
-1.6515937731653079 2.791009143784871E-7 0.0
-1.6456634544106747 3.0578335064345986E-7 0.0
-1.6397331356560416 3.3501666499000307E-7 0.0
-1.6338028169014085 3.670447249166621E-7 0.0
-1.6278724981467754 4.0213471199460547E-7 0.0
-1.6219421793921422 4.405793507254498E-7 0.0
-1.6160118606375096 4.826993504809971E-7 0.0
-1.6100815418828764 5.28846080895814E-7 0.0
-1.6041512231282433 5.794045030310688E-7 0.0
-1.5982209043736102 6.34796380761715E-7 0.0
-1.592290585618977 6.954837991767633E-7 0.0
-1.586360266864344 7.619730193435228E-7 0.0
-1.5804299481097108 8.348187015926725E-7 0.0
-1.5744996293550781 9.146285325552712E-7 0.0
-1.568569310600445 1.0020682945509512E-6 0.0
-1.562638991845812 1.0978674196166861E-6 0.0
-1.5567086730911788 1.2028250745084475E-6 0.0
-1.5507783543365457 1.3178168274374968E-6 0.0
-1.5448480355819125 1.4438019521559559E-6 0.0
-1.5389177168272794 1.5818314303231328E-6 0.0
-1.5329873980726463 1.733056718909221E-6 0.0
-1.5270570793180136 1.8987393557750015E-6 0.0
-1.5211267605633805 2.080261483558353E-6 0.0
-1.5151964418087474 2.2791373796589705E-6 0.0
-1.5092661230541142 2.4970260885056903E-6 0.0
-1.503335804299481 2.7357452614861665E-6 0.0
-1.497405485544848 2.997286319993111E-6 0.0
-1.4914751667902149 3.283831068078878E-6 0.0
-1.4855448480355822 3.5977698933029698E-6 0.0
-1.479614529280949 3.941721707605923E-6 0.0
-1.473684210526316 4.3185557945585284E-6 0.0
-1.4677538917716828 4.7314157452384965E-6 0.0
-1.4618235730170497 5.1837456824103006E-6 0.0
-1.4558932542624166 5.679318991773135E-6 0.0
-1.4499629355077834 6.222269799956212E-6 0.0
-1.4440326167531508 6.817127461854267E-6 0.0
-1.4381022979985176 7.46885434500038E-6 0.0
